 		 Inside Smooth Trajectory Method
  			(x, y, angle values Respectively)

-6.83828	4.57328	-0.00531144
-6.66222	5.24354	-0.00601023
-6.25375	5.75828	-0.00670689
-5.54841	6.1243	-0.00739159
-4.47248	6.34683	-0.00803388
-2.9575	6.41951	-0.00863099
-1.01284	6.37666	-0.0091916
1.33532	6.23637	-0.009701
4.05318	6.02464	-0.0101881
7.11443	5.73151	-0.0106491
10.5963	5.36789	-0.0110776
15.3234	5.20037	-0.012026
21.0922	4.9077	-0.0129305
27.9404	4.53274	-0.0137734
35.6652	4.04644	-0.0145744
44.1164	3.4609	-0.0152966
53.1894	2.79693	-0.0159382
62.8806	2.08525	-0.0164783
73.1727	1.28783	-0.0168579
83.8143	0.395329	-0.0171151
94.8896	-0.543576	-0.0172548
106.408	-1.45947	-0.0172822
118.346	-2.26419	-0.0171698
130.873	-2.70822	-0.0169166
143.881	-2.63417	-0.0164742
156.974	-2.20055	-0.0158607
169.909	-1.46442	-0.0151195
182.47	-0.528573	-0.0142884
194.546	0.543489	-0.0134182
206.086	1.79871	-0.0125078
216.922	3.1897	-0.0115711
226.826	4.66372	-0.0106122
235.494	6.17708	-0.00961571
242.776	7.73933	-0.00860689
248.618	9.30297	-0.00761272
253.155	10.8422	-0.00658286
256.439	12.3122	-0.00552769
258.241	13.6341	-0.00445925
258.457	14.7529	-0.00337853
257.271	15.7084	-0.00235946
254.985	16.4977	-0.00139721
251.645	17.123	-0.000492641
247.268	17.5519	0.000331054
241.697	17.6829	0.00101141
234.41	17.2056	0.00145576
225.605	16.0698	0.00159604
215.746	14.5877	0.00142709
205.059	12.9055	0.000989365
193.574	11.1272	0.000302477
181.479	9.35152	-0.000550162
168.951	7.57931	-0.00150857
156.265	5.93979	-0.00252017
143.588	4.54105	-0.00357112
131.02	3.43926	-0.00467288
118.654	2.66382	-0.00584796
106.574	2.20928	-0.00712474
94.8667	2.04664	-0.00852422
83.6846	2.1195	-0.0100159
73.4444	2.46666	-0.0115882
64.2973	3.04904	-0.0132231
56.1449	3.76965	-0.0148475
48.9528	4.60856	-0.0164534
42.496	5.42481	-0.0180045
36.713	6.05488	-0.0194148
31.7354	6.44024	-0.0205922
27.9164	6.18642	-0.0213516
25.0454	5.50868	-0.0217547
22.9938	4.72302	-0.0218637
21.7043	3.77891	-0.0216597
21.4947	2.60074	-0.0210443
22.2545	1.19604	-0.0200514
23.7854	-0.46484	-0.0187888
25.8924	-2.3606	-0.0174036
28.4204	-4.46751	-0.0159724
31.3326	-6.79885	-0.0144852
34.592	-9.30506	-0.0129365
38.1194	-11.9446	-0.0112747
41.8719	-14.6482	-0.00951
45.7243	-17.3395	-0.00768692
49.49	-19.9889	-0.00580765
52.9969	-22.5469	-0.00390339
56.0971	-24.9011	-0.00206817
58.6821	-26.9828	-0.000325634
60.7779	-28.7473	0.0012875
62.3474	-30.0626	0.00268856
63.3583	-30.8961	0.0038327
63.6679	-30.8387	0.00456971
63.2633	-30.2935	0.00493638
62.102	-29.778	0.00497797
59.9394	-29.4598	0.00460307
56.4244	-29.3691	0.00368905
51.6528	-29.4703	0.00229447
45.8155	-29.7749	0.000577735
39.395	-30.148	-0.00124494
32.2585	-30.7052	-0.00318155
24.3434	-31.4726	-0.00524124
15.6704	-32.5113	-0.00743303
6.33785	-33.8258	-0.0097291
-3.59981	-35.3888	-0.0121398
-14.0078	-37.1974	-0.0146266
-24.6834	-39.2638	-0.0171568
-35.3538	-41.5523	-0.0197035
-45.7609	-44.033	-0.0221701
-55.6169	-46.6672	-0.0245042
-64.6897	-49.3134	-0.0266883
-72.8707	-51.8985	-0.0287083
-80.1077	-54.3896	-0.03051
-86.2575	-56.8248	-0.0320424
-91.1324	-59.1364	-0.0333003
-94.4907	-61.2675	-0.0341695
-95.6468	-62.7958	-0.0345047
-94.6782	-62.4668	-0.0352148
-91.3036	-61.431	-0.0352634
-86.0347	-59.9042	-0.0347953
-79.6399	-58.294	-0.0340639
-71.7817	-56.5228	-0.0331305
-62.3135	-54.514	-0.0321265
-51.3743	-52.2385	-0.0310436
-39.4487	-49.7819	-0.0299535
-26.9958	-47.2539	-0.0287901
-14.1311	-44.6959	-0.0275721
-0.642616	-42.0975	-0.0263409
13.0897	-39.5127	-0.0251403
26.6635	-36.9877	-0.0240551
39.6571	-34.5883	-0.0231551
51.7255	-32.3519	-0.0224727
62.6705	-30.3012	-0.0219671
71.8603	-28.5025	-0.0217017
79.4803	-26.8675	-0.0216427
84.8073	-25.4068	-0.0219064
87.6136	-24.0295	-0.0225816
88.1256	-22.6658	-0.0235883
85.7844	-22.558	-0.0242202
79.6628	-22.718	-0.0257793
71.411	-23.5265	-0.0271831
60.3138	-24.5714	-0.028912
46.4606	-25.6634	-0.0309009
29.9882	-26.7718	-0.0329674
10.9956	-27.8164	-0.0351926
-10.2385	-28.7909	-0.0375594
-33.388	-29.752	-0.0401025
-58.2274	-30.6422	-0.0428495
-84.5404	-31.4113	-0.0455937
-111.627	-31.8982	-0.0481882
-139.062	-32.1339	-0.0506041
-166.444	-32.1198	-0.0528278
-193.441	-31.9402	-0.0548764
-219.847	-31.7848	-0.0568101
-245.433	-31.3674	-0.0585841
-270.43	-30.5421	-0.0601994
-294.178	-29.2394	-0.0614805
-316.618	-27.6838	-0.0623505
-338.219	-26.3074	-0.0629215
-358.014	-25.0431	-0.0629366
-375.333	-23.7887	-0.0621934
-391.214	-21.9471	-0.0616626
-404.624	-19.8167	-0.0608135
-416.044	-17.6893	-0.05972
-425.519	-15.8119	-0.0583274
-432.99	-14.3383	-0.0566102
-438.27	-13.1941	-0.0546386
-441.252	-12.2218	-0.0524209
-442.18	-11.4298	-0.0499512
-441.612	-10.8899	-0.0474113
-440.059	-10.732	-0.0448927
-437.683	-10.9238	-0.0423903
-434.647	-11.4431	-0.0398908
-431.116	-12.2273	-0.0373878
-427.16	-13.101	-0.0348701
-422.364	-14.2291	-0.0323397
-416.76	-15.6789	-0.0298471
-410.427	-17.4692	-0.0274068
-403.347	-19.4216	-0.0250952
-395.709	-21.3358	-0.0229807
-387.71	-23.1762	-0.021056
-379.527	-24.9447	-0.0193424
-371.501	-26.7397	-0.0179364
-363.57	-28.4787	-0.016767
-355.406	-30.0459	-0.0156973
-347.073	-31.2331	-0.0148437
-338.645	-31.9947	-0.0142897
-330.226	-32.4154	-0.0139837
-321.832	-32.6538	-0.0139016
-313.394	-32.836	-0.0139963
-304.889	-33.0345	-0.0142329
-296.254	-33.3268	-0.0145778
-287.186	-33.8311	-0.0149479
-277.255	-34.535	-0.0153281
-266.491	-35.2469	-0.0157759
-254.916	-35.9393	-0.016259
-242.572	-36.5716	-0.0168115
-229.5	-37.1064	-0.0174347
-215.774	-37.5367	-0.0181642
-201.496	-37.8856	-0.0189876
-186.818	-38.2079	-0.0198956
-172.001	-38.5248	-0.0209014
-157.311	-38.8154	-0.022046
-142.989	-39.0572	-0.0232311
-128.676	-39.0414	-0.0244205
-114.486	-38.8434	-0.0254639
-100.781	-38.8293	-0.0263595
-87.5285	-39.0048	-0.0269526
-74.8105	-39.2555	-0.0272971
-62.6609	-39.3566	-0.0274147
-51.0926	-39.1347	-0.0273164
-40.1905	-38.5857	-0.0270253
-30.1009	-37.7579	-0.0265774
-21.3118	-36.6756	-0.0260697
-14.4464	-35.4589	-0.0255552
-9.61477	-34.3539	-0.025003
-6.79086	-33.44	-0.0244233
-5.79371	-32.7433	-0.0238053
-6.57778	-32.3391	-0.023144
-9.03959	-32.2504	-0.0223897
-13.1441	-32.49	-0.021562
-18.7653	-33.0935	-0.0206626
-25.6765	-34.0385	-0.019722
-33.6689	-35.3861	-0.0187233
-42.4235	-37.0624	-0.0177055
-52.2712	-39.2186	-0.0166782
-63.0931	-41.6299	-0.0158878
-74.7235	-43.9892	-0.0152693
-87.1797	-46.2169	-0.0149141
-100.277	-48.3241	-0.0148353
-113.906	-50.3878	-0.0149858
-127.961	-52.2694	-0.0153628
-142.534	-53.5326	-0.0160286
-157.133	-54.351	-0.0169885
-171.393	-54.8391	-0.0182104
-184.939	-55.1254	-0.0195223
-197.644	-55.0594	-0.020933
-209.472	-54.7443	-0.0224421
-220.514	-54.3237	-0.0240577
-230.763	-53.9184	-0.0257223
-240.231	-53.6033	-0.0274337
-248.894	-53.4608	-0.0291855
-256.629	-53.4498	-0.0309972
-263.278	-53.5351	-0.0328561
-268.592	-53.6361	-0.0346923
-272.334	-53.7168	-0.0365323
-274.769	-53.7858	-0.0383564
-276.196	-53.9422	-0.0400983
-276.351	-54.0884	-0.0418006
-274.924	-54.0405	-0.043283
-272.009	-54.0407	-0.0443071
-267.706	-54.2141	-0.0449922
-262.378	-54.7662	-0.0454266
-255.497	-55.9895	-0.0454298
-246.87	-57.3699	-0.0448469
-237.048	-58.5959	-0.0437778
-226.575	-59.5376	-0.0424686
-215.886	-60.5153	-0.0409819
-205.368	-61.5751	-0.0393563
-194.894	-62.6077	-0.0375133
-184.409	-63.5461	-0.0355083
-174.007	-64.3818	-0.0333975
-163.817	-65.0731	-0.0312156
-154.023	-65.7139	-0.0289195
-144.787	-66.3568	-0.026534
-136.385	-67.0656	-0.0241088
-129.183	-67.893	-0.0216771
-122.998	-68.8799	-0.019269
-117.598	-70.0942	-0.0168723
-113.05	-71.5712	-0.0145062
-109.562	-73.4125	-0.0122748
-107.108	-75.3303	-0.0102787
-105.785	-77.1885	-0.00852089
-105.451	-79.1164	-0.00693382
-106.421	-81.1533	-0.0057443
-109.264	-83.4974	-0.00515492
-113.627	-86.2046	-0.00509238
-119.076	-89.1417	-0.00543513
-125.032	-92.0668	-0.00603195
-131.047	-94.8022	-0.0067799
-137.196	-97.3373	-0.0076682
-143.405	-99.6188	-0.00863379
-149.467	-101.616	-0.00964336
-155.15	-103.3	-0.0107245
-160.305	-104.653	-0.0119053
-164.79	-105.726	-0.0131899
-168.331	-106.566	-0.0145853
-170.586	-107.228	-0.0160586
-171.209	-107.793	-0.0175575
-170.132	-108.323	-0.0189689
-167.788	-108.81	-0.020386
-164.582	-109.29	-0.0218123
-160.53	-109.837	-0.0231916
-155.247	-110.713	-0.0243436
-148.887	-111.933	-0.025406
-147.694	-111.912	-0.0262372
-145.787	-111.903	-0.0269491
-143.085	-111.897	-0.0275258
-139.575	-111.938	-0.0279387
-135.311	-112.091	-0.0281854
-130.308	-112.412	-0.0283156
-124.561	-112.931	-0.0284361
-118.078	-113.671	-0.0286436
-110.897	-114.615	-0.0289703
-103.093	-115.795	-0.0293451
